# TOPAS Version: 3.9
# Parameter File: simulacao.txt
# Results for scorer: Dose
# Scored in component: Camada1
# X in 158 bins of 0.109089 cm
# Y in 208 bins of 0.121885 cm
# Z in 1 bin  of 1.448 cm
# DoseToMedium ( Gy ) : Sum   
0, 0, 0, 2.691354552553094e-07
0, 1, 0, 3.849152960810898e-07
0, 2, 0, 4.60583578387741e-07
0, 3, 0, 4.127145700749679e-07
0, 4, 0, 5.333799890649971e-07
0, 5, 0, 5.269646976557851e-07
0, 6, 0, 4.803401338904223e-07
0, 7, 0, 4.974782541466993e-07
0, 8, 0, 4.965871198692184e-07
0, 9, 0, 4.935643573844573e-07
0, 10, 0, 5.810124434901809e-07
0, 11, 0, 6.122904778749216e-07
0, 12, 0, 5.425215476861922e-07
0, 13, 0, 6.010881747897656e-07
0, 14, 0, 4.981046686225454e-07
0, 15, 0, 5.25332040979265e-07
0, 16, 0, 4.870945531365578e-07
0, 17, 0, 5.318638045537227e-07
0, 18, 0, 6.099283496041608e-07
0, 19, 0, 5.328410566107777e-07
0, 20, 0, 6.017955911374884e-07
0, 21, 0, 5.598858479061164e-07
0, 22, 0, 5.657759061250545e-07
0, 23, 0, 4.967096742802823e-07
0, 24, 0, 5.153726192475006e-07
0, 25, 0, 4.943905764775991e-07
0, 26, 0, 4.75140325306711e-07
0, 27, 0, 5.398296138992009e-07
0, 28, 0, 5.12260555751709e-07
0, 29, 0, 5.307773562890361e-07
0, 30, 0, 5.115652470522036e-07
0, 31, 0, 5.131968805471843e-07
0, 32, 0, 5.774726332674618e-07
0, 33, 0, 5.341015594240162e-07
0, 34, 0, 4.895775305158168e-07
0, 35, 0, 5.441327743938018e-07
0, 36, 0, 5.616848284262232e-07
0, 37, 0, 5.709295578526508e-07
0, 38, 0, 5.603811814580695e-07
0, 39, 0, 4.435079574705014e-07
0, 40, 0, 5.865054504283762e-07
0, 41, 0, 6.072828568903788e-07
0, 42, 0, 5.637162416860519e-07
0, 43, 0, 4.873278953709814e-07
0, 44, 0, 6.027849508427607e-07
0, 45, 0, 5.709446782020677e-07
0, 46, 0, 5.799962536912062e-07
0, 47, 0, 5.693170805898262e-07
0, 48, 0, 5.655521135849995e-07
0, 49, 0, 5.805873684039398e-07
0, 50, 0, 5.819205171064823e-07
0, 51, 0, 5.206014179748308e-07
0, 52, 0, 6.317980023595737e-07
0, 53, 0, 5.572168788603449e-07
0, 54, 0, 4.704104696884315e-07
0, 55, 0, 5.459056069412327e-07
0, 56, 0, 5.982712991681183e-07
0, 57, 0, 5.846735575687489e-07
0, 58, 0, 5.522829837900645e-07
0, 59, 0, 5.499197186509264e-07
0, 60, 0, 5.18083254519297e-07
0, 61, 0, 5.166902496966941e-07
0, 62, 0, 5.551693789129786e-07
0, 63, 0, 4.897029270978237e-07
0, 64, 0, 5.450112325888767e-07
0, 65, 0, 5.241388976173766e-07
0, 66, 0, 5.697775122825988e-07
0, 67, 0, 5.630195687444939e-07
0, 68, 0, 5.698423137801001e-07
0, 69, 0, 5.32924673279922e-07
0, 70, 0, 5.378801688493695e-07
0, 71, 0, 5.529323061637115e-07
0, 72, 0, 5.850114348504576e-07
0, 73, 0, 5.28013458733767e-07
0, 74, 0, 5.285533006826881e-07
0, 75, 0, 5.475660600495758e-07
0, 76, 0, 4.788159913005074e-07
0, 77, 0, 5.167553922547086e-07
0, 78, 0, 5.09257745306968e-07
0, 79, 0, 5.299112899592728e-07
0, 80, 0, 5.352823677640117e-07
0, 81, 0, 5.295742084854282e-07
0, 82, 0, 5.915258611821628e-07
0, 83, 0, 5.667822620125662e-07
0, 84, 0, 5.316850320014055e-07
0, 85, 0, 5.79270249545516e-07
0, 86, 0, 5.138462597642501e-07
0, 87, 0, 4.920364631288976e-07
0, 88, 0, 5.458873602037784e-07
0, 89, 0, 5.648604428643011e-07
0, 90, 0, 5.145631689629226e-07
0, 91, 0, 5.311168251864729e-07
0, 92, 0, 5.728759333578637e-07
0, 93, 0, 6.194435968609469e-07
0, 94, 0, 5.729224881179107e-07
0, 95, 0, 5.459506837723893e-07
0, 96, 0, 5.204552167015208e-07
0, 97, 0, 5.510805181074829e-07
0, 98, 0, 4.974347689312708e-07
0, 99, 0, 5.598524808192451e-07
0, 100, 0, 5.03404407936614e-07
0, 101, 0, 5.555062330131477e-07
0, 102, 0, 6.160073553473921e-07
0, 103, 0, 5.346937541617081e-07
0, 104, 0, 5.135930223332252e-07
0, 105, 0, 5.846691806254967e-07
0, 106, 0, 5.484732810145942e-07
0, 107, 0, 5.635793058900163e-07
0, 108, 0, 5.594904450845206e-07
0, 109, 0, 5.692667173207155e-07
0, 110, 0, 5.754454264206288e-07
0, 111, 0, 5.795987476631126e-07
0, 112, 0, 4.649409675039351e-07
0, 113, 0, 4.645798412639124e-07
0, 114, 0, 5.132628757564817e-07
0, 115, 0, 5.398646294452192e-07
0, 116, 0, 5.592791012531961e-07
0, 117, 0, 5.457752649817849e-07
0, 118, 0, 6.28593340934458e-07
0, 119, 0, 5.665471576321579e-07
0, 120, 0, 5.685533324140124e-07
0, 121, 0, 5.682295523001812e-07
0, 122, 0, 5.525622555069276e-07
0, 123, 0, 5.735114996241464e-07
0, 124, 0, 5.621449759019015e-07
0, 125, 0, 5.952877017989522e-07
0, 126, 0, 5.829548967994924e-07
0, 127, 0, 4.712031511644454e-07
0, 128, 0, 5.420383217824565e-07
0, 129, 0, 5.328375891622272e-07
0, 130, 0, 5.715261863770138e-07
0, 131, 0, 4.920971150568221e-07
0, 132, 0, 5.635763500322355e-07
0, 133, 0, 6.117828661444946e-07
0, 134, 0, 5.607557227449433e-07
0, 135, 0, 5.499448434420628e-07
0, 136, 0, 5.265931690701109e-07
0, 137, 0, 5.439483174995985e-07
0, 138, 0, 5.563127274399449e-07
0, 139, 0, 5.824706477142172e-07
0, 140, 0, 5.030238980907598e-07
0, 141, 0, 5.568695087276865e-07
0, 142, 0, 5.702423209186236e-07
0, 143, 0, 5.867936465620005e-07
0, 144, 0, 5.884318170501501e-07
0, 145, 0, 4.996140887669753e-07
0, 146, 0, 5.298600740388792e-07
0, 147, 0, 5.776777243227116e-07
0, 148, 0, 5.483661311700416e-07
0, 149, 0, 5.395284006226575e-07
0, 150, 0, 5.68752795970795e-07
0, 151, 0, 5.288155762173119e-07
0, 152, 0, 5.510966616384394e-07
0, 153, 0, 5.265467848403205e-07
0, 154, 0, 5.571837959905679e-07
0, 155, 0, 6.302831820903521e-07
0, 156, 0, 5.617761189569137e-07
0, 157, 0, 5.767538482359669e-07
0, 158, 0, 5.112490839564998e-07
0, 159, 0, 5.689856266144488e-07
0, 160, 0, 6.583497338397137e-07
0, 161, 0, 5.499908297679212e-07
0, 162, 0, 5.46537251011614e-07
0, 163, 0, 5.192075036575261e-07
0, 164, 0, 5.799810764983704e-07
0, 165, 0, 5.404356784310949e-07
0, 166, 0, 5.108301479594957e-07
0, 167, 0, 4.828098099096678e-07
0, 168, 0, 5.178769129088323e-07
0, 169, 0, 5.762442469858797e-07
0, 170, 0, 5.288470106279419e-07
0, 171, 0, 5.499757662619231e-07
0, 172, 0, 5.47282127172366e-07
0, 173, 0, 5.053437917013071e-07
0, 174, 0, 5.262376703285554e-07
0, 175, 0, 5.436822902993299e-07
0, 176, 0, 5.11247378653934e-07
0, 177, 0, 5.195287258175085e-07
0, 178, 0, 5.210962399360142e-07
0, 179, 0, 5.74624493765441e-07
0, 180, 0, 5.606274271485745e-07
0, 181, 0, 4.95683536883007e-07
0, 182, 0, 5.011925168219022e-07
0, 183, 0, 5.534068350243615e-07
0, 184, 0, 6.228705728972272e-07
0, 185, 0, 5.318423177413933e-07
0, 186, 0, 5.026458893553354e-07
0, 187, 0, 5.620118486149295e-07
0, 188, 0, 5.200711825636972e-07
0, 189, 0, 5.19318632541399e-07
0, 190, 0, 5.79452375859546e-07
0, 191, 0, 5.760556405220996e-07
0, 192, 0, 5.233920887803833e-07
0, 193, 0, 5.583860911428928e-07
0, 194, 0, 4.730667342300876e-07
0, 195, 0, 4.811215603695018e-07
0, 196, 0, 5.370092708290031e-07
0, 197, 0, 5.330339831743913e-07
0, 198, 0, 5.482283995661419e-07
0, 199, 0, 4.963634410160012e-07
0, 200, 0, 5.400885356721119e-07
0, 201, 0, 4.961896706845437e-07
0, 202, 0, 5.435322236735374e-07
0, 203, 0, 5.443685040518176e-07
0, 204, 0, 5.499327926372644e-07
0, 205, 0, 5.007499908060709e-07
0, 206, 0, 3.616241315285151e-07
0, 207, 0, 3.483096122636198e-07
1, 0, 0, 4.00315855131339e-07
1, 1, 0, 5.789358397123578e-07
1, 2, 0, 6.016053930579801e-07
1, 3, 0, 6.520672286569607e-07
1, 4, 0, 7.983394425536972e-07
1, 5, 0, 6.835527983639622e-07
1, 6, 0, 7.422742669405125e-07
1, 7, 0, 7.511419539696362e-07
1, 8, 0, 7.054908337522647e-07
1, 9, 0, 8.051819122556481e-07
1, 10, 0, 7.848968834878178e-07
1, 11, 0, 8.250137852883199e-07
1, 12, 0, 7.735476970083255e-07
1, 13, 0, 7.875439678173279e-07
1, 14, 0, 7.030480446701404e-07
1, 15, 0, 7.483655508622178e-07
1, 16, 0, 6.825502509855141e-07
1, 17, 0, 7.015609639893228e-07
1, 18, 0, 7.78770697706932e-07
1, 19, 0, 8.092929988379183e-07
1, 20, 0, 8.259838182311796e-07
1, 21, 0, 8.298626994474034e-07
1, 22, 0, 8.163889901879884e-07
1, 23, 0, 7.458953632522025e-07
1, 24, 0, 8.218268021664699e-07
1, 25, 0, 7.6886703936907e-07
1, 26, 0, 7.19895979273133e-07
1, 27, 0, 7.2037215659293e-07
1, 28, 0, 8.016700689950085e-07
1, 29, 0, 8.102388164843433e-07
1, 30, 0, 7.000055575190345e-07
1, 31, 0, 7.524456577812089e-07
1, 32, 0, 8.681840313329303e-07
1, 33, 0, 7.654616638319567e-07
1, 34, 0, 7.043759069347288e-07
1, 35, 0, 7.143869993342378e-07
1, 36, 0, 7.029781272649416e-07
1, 37, 0, 6.77064122101001e-07
1, 38, 0, 7.322004762500001e-07
1, 39, 0, 7.00204623171885e-07
1, 40, 0, 7.438375746460224e-07
1, 41, 0, 8.186846116586821e-07
1, 42, 0, 8.06960031241033e-07
1, 43, 0, 7.130642529773468e-07
1, 44, 0, 8.483066267217509e-07
1, 45, 0, 8.033943004193134e-07
1, 46, 0, 8.686944283908815e-07
1, 47, 0, 8.226657541854365e-07
1, 48, 0, 8.138626981235575e-07
1, 49, 0, 7.972831213010068e-07
1, 50, 0, 7.694280270698073e-07
1, 51, 0, 7.986540140336729e-07
1, 52, 0, 7.466669558198191e-07
1, 53, 0, 8.531434332326171e-07
1, 54, 0, 7.276674978129449e-07
1, 55, 0, 8.456099180875754e-07
1, 56, 0, 7.646748940715042e-07
1, 57, 0, 7.497054639316048e-07
1, 58, 0, 8.303711638291134e-07
1, 59, 0, 7.980941063578939e-07
1, 60, 0, 7.443442768817476e-07
1, 61, 0, 7.281933562808263e-07
1, 62, 0, 8.041976116146543e-07
1, 63, 0, 7.84915187068691e-07
1, 64, 0, 8.347831226274138e-07
1, 65, 0, 8.771274337959767e-07
1, 66, 0, 8.363927008758765e-07
1, 67, 0, 8.143520631165302e-07
1, 68, 0, 7.43310124562413e-07
1, 69, 0, 7.869058435971965e-07
1, 70, 0, 7.674004791624611e-07
1, 71, 0, 7.783909268255229e-07
1, 72, 0, 7.887408060014423e-07
1, 73, 0, 8.456337923234969e-07
1, 74, 0, 7.908161592240504e-07
1, 75, 0, 7.701425488448876e-07
1, 76, 0, 8.028335400922515e-07
1, 77, 0, 8.447437380709744e-07
1, 78, 0, 7.317569270526292e-07
1, 79, 0, 7.291778842954955e-07
1, 80, 0, 7.19415709227178e-07
1, 81, 0, 7.543700348833227e-07
1, 82, 0, 7.528284982072364e-07
1, 83, 0, 7.257447123265592e-07
1, 84, 0, 8.149862651407602e-07
1, 85, 0, 6.859862651253934e-07
1, 86, 0, 7.093673275448964e-07
1, 87, 0, 6.17562534444005e-07
1, 88, 0, 8.07119306500681e-07
1, 89, 0, 7.553049385933264e-07
1, 90, 0, 7.694364967392175e-07
1, 91, 0, 8.830917863633658e-07
1, 92, 0, 8.117056609080464e-07
1, 93, 0, 8.380787335227069e-07
1, 94, 0, 8.583015187468845e-07
1, 95, 0, 7.67345397889585e-07
1, 96, 0, 8.304745620080212e-07
1, 97, 0, 7.275423854480323e-07
1, 98, 0, 7.417175993396086e-07
1, 99, 0, 7.257663128257263e-07
1, 100, 0, 7.535675194958458e-07
1, 101, 0, 8.380457643397676e-07
1, 102, 0, 7.518055440414173e-07
1, 103, 0, 6.893976092214871e-07
1, 104, 0, 8.157784918694233e-07
1, 105, 0, 8.278911423076352e-07
1, 106, 0, 7.591132202833251e-07
1, 107, 0, 7.395226475637173e-07
1, 108, 0, 7.283831564564025e-07
1, 109, 0, 7.928821901259653e-07
1, 110, 0, 6.984896003814356e-07
1, 111, 0, 8.000549200914975e-07
1, 112, 0, 7.876221843616804e-07
1, 113, 0, 8.032759524212452e-07
1, 114, 0, 7.841454134904779e-07
1, 115, 0, 7.239919455059862e-07
1, 116, 0, 7.715782430750551e-07
1, 117, 0, 7.12644350642222e-07
1, 118, 0, 7.554151579824975e-07
1, 119, 0, 7.453247690136777e-07
1, 120, 0, 8.28254258067318e-07
1, 121, 0, 7.504639256694645e-07
1, 122, 0, 7.933444976515602e-07
1, 123, 0, 7.80209404638299e-07
1, 124, 0, 7.702215611971042e-07
1, 125, 0, 8.103933737402258e-07
1, 126, 0, 7.884641490818467e-07
1, 127, 0, 7.416699077111844e-07
1, 128, 0, 7.673303912270057e-07
1, 129, 0, 7.995774922164856e-07
1, 130, 0, 7.631040261912858e-07
1, 131, 0, 7.097422667357023e-07
1, 132, 0, 8.338848260791565e-07
1, 133, 0, 7.696663715250907e-07
1, 134, 0, 7.337746978919313e-07
1, 135, 0, 7.290835242201865e-07
1, 136, 0, 7.542652156189433e-07
1, 137, 0, 7.459218522853917e-07
1, 138, 0, 7.473341838704073e-07
1, 139, 0, 8.140956992974679e-07
1, 140, 0, 7.130726658033382e-07
1, 141, 0, 8.806417213236273e-07
1, 142, 0, 8.64761091179389e-07
1, 143, 0, 8.141107628034661e-07
1, 144, 0, 7.9588880907977e-07
1, 145, 0, 7.521365432694438e-07
1, 146, 0, 7.239440833473054e-07
1, 147, 0, 7.289070254046237e-07
1, 148, 0, 7.704005611230968e-07
1, 149, 0, 7.380436954917968e-07
1, 150, 0, 7.611737942170294e-07
1, 151, 0, 7.853324746065482e-07
1, 152, 0, 7.93264121057291e-07
1, 153, 0, 7.398220986942761e-07
1, 154, 0, 7.924131182335259e-07
1, 155, 0, 7.967306601130986e-07
1, 156, 0, 8.192707241505559e-07
1, 157, 0, 7.916031563581782e-07
1, 158, 0, 7.26818029761489e-07
1, 159, 0, 7.388492804238922e-07
1, 160, 0, 7.228284744087432e-07
1, 161, 0, 7.61217222589039e-07
1, 162, 0, 6.850179374850995e-07
1, 163, 0, 7.75354976667586e-07
1, 164, 0, 8.067151497925806e-07
1, 165, 0, 8.169938041646674e-07
1, 166, 0, 7.758695801385329e-07
1, 167, 0, 7.553763339274155e-07
1, 168, 0, 7.775381618557731e-07
1, 169, 0, 7.215701884888404e-07
1, 170, 0, 7.926137186586857e-07
1, 171, 0, 6.391684337359038e-07
1, 172, 0, 8.162389235621959e-07
1, 173, 0, 7.023763828328811e-07
1, 174, 0, 8.175267112164875e-07
1, 175, 0, 7.301435402951029e-07
1, 176, 0, 7.522709779550496e-07
1, 177, 0, 7.717242169746896e-07
1, 178, 0, 8.012207217689138e-07
1, 179, 0, 8.680619316692173e-07
1, 180, 0, 8.076161748249433e-07
1, 181, 0, 6.915482799740857e-07
1, 182, 0, 7.244828452712682e-07
1, 183, 0, 7.423154784191865e-07
1, 184, 0, 7.920776283754094e-07
1, 185, 0, 8.367638884010375e-07
1, 186, 0, 7.685193850193173e-07
1, 187, 0, 7.663879841857124e-07
1, 188, 0, 7.625370699315681e-07
1, 189, 0, 7.480614954147313e-07
1, 190, 0, 8.40413406422158e-07
1, 191, 0, 7.385612548205245e-07
1, 192, 0, 7.608911687384534e-07
1, 193, 0, 8.003883067431161e-07
1, 194, 0, 7.670283821425983e-07
1, 195, 0, 8.143618970279931e-07
1, 196, 0, 7.742320349279908e-07
1, 197, 0, 7.192472821770934e-07
1, 198, 0, 6.80485925386165e-07
1, 199, 0, 6.599570951948408e-07
1, 200, 0, 8.281571126644849e-07
1, 201, 0, 8.031834113353398e-07
1, 202, 0, 7.773537618049886e-07
1, 203, 0, 7.305160352188977e-07
1, 204, 0, 7.008365514593606e-07
1, 205, 0, 5.783856522612041e-07
1, 206, 0, 5.461025693875854e-07
1, 207, 0, 4.017869628114568e-07
2, 0, 0, 4.740001884329104e-07
2, 1, 0, 6.389176405718899e-07
2, 2, 0, 7.672937272218405e-07
2, 3, 0, 8.870142664818559e-07
2, 4, 0, 8.170584351319121e-07
2, 5, 0, 7.868104034969292e-07
2, 6, 0, 9.124132702709176e-07
2, 7, 0, 9.40697191254003e-07
2, 8, 0, 9.0088121851295e-07
2, 9, 0, 7.794415637363272e-07
2, 10, 0, 8.488580647281196e-07
2, 11, 0, 9.476867148805468e-07
2, 12, 0, 9.541197414364433e-07
2, 13, 0, 8.881792155079893e-07
2, 14, 0, 9.37337006234884e-07
2, 15, 0, 9.464271215620101e-07
2, 16, 0, 9.045842261912185e-07
2, 17, 0, 9.078562470676843e-07
2, 18, 0, 9.475303954786796e-07
2, 19, 0, 9.025253007166611e-07
2, 20, 0, 8.725462521397276e-07
2, 21, 0, 9.592819196768687e-07
2, 22, 0, 8.738739438740595e-07
2, 23, 0, 9.037731274474936e-07
2, 24, 0, 9.055493706000561e-07
2, 25, 0, 9.001572607303387e-07
2, 26, 0, 8.853294843902404e-07
2, 27, 0, 9.429799092686153e-07
2, 28, 0, 8.730804097467626e-07
2, 29, 0, 7.908421935098886e-07
2, 30, 0, 8.757062914810376e-07
2, 31, 0, 8.746918638280476e-07
2, 32, 0, 9.719832405608031e-07
2, 33, 0, 8.556410762139421e-07
2, 34, 0, 8.784850820120482e-07
2, 35, 0, 8.570366958338127e-07
2, 36, 0, 8.792559356152196e-07
2, 37, 0, 9.2464165390993e-07
2, 38, 0, 9.601543524695444e-07
2, 39, 0, 9.876115427687182e-07
2, 40, 0, 8.703071898708004e-07
2, 41, 0, 9.296130656366586e-07
2, 42, 0, 9.122931032834458e-07
2, 43, 0, 8.86294230895146e-07
2, 44, 0, 8.938082487475185e-07
2, 45, 0, 9.264464893021795e-07
2, 46, 0, 8.859199738253665e-07
2, 47, 0, 9.707583785711904e-07
2, 48, 0, 9.879304343485273e-07
2, 49, 0, 9.367925599690352e-07
2, 50, 0, 8.856856084094034e-07
2, 51, 0, 9.359403065900551e-07
2, 52, 0, 9.426653377886396e-07
2, 53, 0, 9.616394436307019e-07
2, 54, 0, 8.736079735172098e-07
2, 55, 0, 9.977384252124466e-07
2, 56, 0, 9.214084002451273e-07
2, 57, 0, 8.880809332367789e-07
2, 58, 0, 9.027061196320574e-07
2, 59, 0, 8.892401979210263e-07
2, 60, 0, 8.34295860840939e-07
2, 61, 0, 8.817919479042757e-07
2, 62, 0, 9.51999140852422e-07
2, 63, 0, 1.013798964777379e-06
2, 64, 0, 1.016081682791992e-06
2, 65, 0, 9.207935249833099e-07
2, 66, 0, 9.180171787193103e-07
2, 67, 0, 8.870159717844217e-07
2, 68, 0, 8.805681090962025e-07
2, 69, 0, 9.127774660555588e-07
2, 70, 0, 8.7418777638959e-07
2, 71, 0, 9.872154578260961e-07
2, 72, 0, 1.006238449008379e-06
2, 73, 0, 9.227777013620653e-07
2, 74, 0, 9.844942496783915e-07
2, 75, 0, 9.633502031647367e-07
2, 76, 0, 9.457343139729346e-07
2, 77, 0, 8.427719535575307e-07
2, 78, 0, 9.340811857327935e-07
2, 79, 0, 9.483390499553934e-07
2, 80, 0, 8.39531708152208e-07
2, 81, 0, 8.564655900045182e-07
2, 82, 0, 8.241630666816491e-07
2, 83, 0, 9.178729669656605e-07
2, 84, 0, 8.9663689095687e-07
2, 85, 0, 9.389998467668192e-07
2, 86, 0, 7.964757173795078e-07
2, 87, 0, 9.804730325413402e-07
2, 88, 0, 9.817568979997304e-07
2, 89, 0, 1.000836846287712e-06
2, 90, 0, 8.499486625623831e-07
2, 91, 0, 9.656506563260336e-07
2, 92, 0, 8.895944461073668e-07
2, 93, 0, 9.751317975315033e-07
2, 94, 0, 9.441644692742557e-07
2, 95, 0, 9.362873356622003e-07
2, 96, 0, 8.580448138673091e-07
2, 97, 0, 7.952858140924945e-07
2, 98, 0, 8.613990871708666e-07
2, 99, 0, 8.572778824600391e-07
2, 100, 0, 8.523919632352772e-07
2, 101, 0, 8.895054293134308e-07
2, 102, 0, 8.977197012427496e-07
2, 103, 0, 8.959731871982513e-07
2, 104, 0, 9.292375011682452e-07
2, 105, 0, 8.624285783298546e-07
2, 106, 0, 8.579723385082616e-07
2, 107, 0, 9.182699045595655e-07
2, 108, 0, 8.49590151119628e-07
2, 109, 0, 8.461060474473925e-07
2, 110, 0, 9.33607282149751e-07
2, 111, 0, 9.665961897553643e-07
2, 112, 0, 1.018044486045255e-06
2, 113, 0, 1.007828814181266e-06
2, 114, 0, 9.38461710120464e-07
2, 115, 0, 9.437430321668216e-07
2, 116, 0, 9.44937823987857e-07
2, 117, 0, 9.609065045879106e-07
2, 118, 0, 9.063811035048275e-07
2, 119, 0, 9.561779279465554e-07
2, 120, 0, 9.195538837047934e-07
2, 121, 0, 9.392575179845153e-07
2, 122, 0, 8.27839357953053e-07
2, 123, 0, 8.395268764616048e-07
2, 124, 0, 8.818043397695874e-07
2, 125, 0, 8.82144661318307e-07
2, 126, 0, 9.591432217348483e-07
2, 127, 0, 8.075155619735597e-07
2, 128, 0, 8.592710969423933e-07
2, 129, 0, 8.309351073876314e-07
2, 130, 0, 9.033192895913089e-07
2, 131, 0, 9.348611911264015e-07
2, 132, 0, 9.172971431326005e-07
2, 133, 0, 9.141209034169151e-07
2, 134, 0, 1.003713009595231e-06
2, 135, 0, 9.048025617630628e-07
2, 136, 0, 8.752031703807006e-07
2, 137, 0, 8.182255442079622e-07
2, 138, 0, 8.960008699432365e-07
2, 139, 0, 9.678570904725348e-07
2, 140, 0, 9.264120990337688e-07
2, 141, 0, 9.670062581790262e-07
2, 142, 0, 8.717002515368222e-07
2, 143, 0, 8.996910878522613e-07
2, 144, 0, 8.852397286318592e-07
2, 145, 0, 9.301172667619539e-07
2, 146, 0, 9.281351367462776e-07
2, 147, 0, 8.822887025417003e-07
2, 148, 0, 8.51978768423578e-07
2, 149, 0, 7.974007303346298e-07
2, 150, 0, 9.222894732374698e-07
2, 151, 0, 9.848633908404736e-07
2, 152, 0, 8.938911832956364e-07
2, 153, 0, 9.683698181106593e-07
2, 154, 0, 9.955757604984683e-07
2, 155, 0, 9.171171200250683e-07
2, 156, 0, 9.642150189392851e-07
2, 157, 0, 9.774767022463493e-07
2, 158, 0, 7.736913971712056e-07
2, 159, 0, 8.195020200219005e-07
2, 160, 0, 9.238789289156557e-07
2, 161, 0, 9.0827660415016e-07
2, 162, 0, 8.431767355432385e-07
2, 163, 0, 9.120745971813449e-07
2, 164, 0, 1.039147036863142e-06
2, 165, 0, 9.458713066123892e-07
2, 166, 0, 9.155310181085952e-07
2, 167, 0, 9.833030389927444e-07
2, 168, 0, 9.523506037112384e-07
2, 169, 0, 8.892812957128626e-07
2, 170, 0, 8.497868293488864e-07
2, 171, 0, 8.244069817919808e-07
2, 172, 0, 9.433865670871455e-07
2, 173, 0, 9.135767982115794e-07
2, 174, 0, 9.334257242699096e-07
2, 175, 0, 8.895168548406218e-07
2, 176, 0, 8.817218031254015e-07
2, 177, 0, 9.748196134751197e-07
2, 178, 0, 9.602888439985691e-07
2, 179, 0, 9.163156846625498e-07
2, 180, 0, 9.457790497435781e-07
2, 181, 0, 8.669018143336871e-07
2, 182, 0, 8.352582767656713e-07
2, 183, 0, 8.674932132635149e-07
2, 184, 0, 8.812568808025389e-07
2, 185, 0, 8.881971211849304e-07
2, 186, 0, 9.270765986002516e-07
2, 187, 0, 9.913189842336578e-07
2, 188, 0, 8.662784694024595e-07
2, 189, 0, 8.663806738695712e-07
2, 190, 0, 8.134556424010952e-07
2, 191, 0, 9.254544011128019e-07
2, 192, 0, 8.256506021098176e-07
2, 193, 0, 9.579795232639299e-07
2, 194, 0, 9.069750035450852e-07
2, 195, 0, 8.016481274353282e-07
2, 196, 0, 8.623629810244893e-07
2, 197, 0, 8.564899758312094e-07
2, 198, 0, 9.118220418713463e-07
2, 199, 0, 8.63228024172713e-07
2, 200, 0, 9.158276839116297e-07
2, 201, 0, 9.397621170137427e-07
2, 202, 0, 8.248145491052128e-07
2, 203, 0, 8.744517572267796e-07
2, 204, 0, 7.342281946876028e-07
2, 205, 0, 6.978874012020242e-07
2, 206, 0, 5.461614591695252e-07
2, 207, 0, 4.221018343741889e-07
3, 0, 0, 5.862483476448688e-07
3, 1, 0, 7.217029747152992e-07
3, 2, 0, 7.865137945373135e-07
3, 3, 0, 8.957139243648271e-07
3, 4, 0, 9.209246627506218e-07
3, 5, 0, 8.782063218859548e-07
3, 6, 0, 9.650309493736131e-07
3, 7, 0, 9.286814588449488e-07
3, 8, 0, 9.474082389715477e-07
3, 9, 0, 9.526464737064089e-07
3, 10, 0, 1.010783876154164e-06
3, 11, 0, 1.070245843948214e-06
3, 12, 0, 1.055062853083655e-06
3, 13, 0, 1.052625293596066e-06
3, 14, 0, 1.022860715238494e-06
3, 15, 0, 1.047371256390761e-06
3, 16, 0, 1.05715582776611e-06
3, 17, 0, 9.60752799983311e-07
3, 18, 0, 1.043593442773272e-06
3, 19, 0, 9.554310054227244e-07
3, 20, 0, 1.020375862026413e-06
3, 21, 0, 9.53951598603453e-07
3, 22, 0, 1.006866909847304e-06
3, 23, 0, 1.048533363245951e-06
3, 24, 0, 1.102116812035092e-06
3, 25, 0, 9.952967729986995e-07
3, 26, 0, 9.555752740197931e-07
3, 27, 0, 1.028612928166694e-06
3, 28, 0, 8.957621275840211e-07
3, 29, 0, 9.450901643504039e-07
3, 30, 0, 9.580292044120142e-07
3, 31, 0, 1.063449076355028e-06
3, 32, 0, 1.038659092955641e-06
3, 33, 0, 9.907026878863689e-07
3, 34, 0, 9.066140478353191e-07
3, 35, 0, 8.82925519363198e-07
3, 36, 0, 9.965704066416947e-07
3, 37, 0, 9.748355296324007e-07
3, 38, 0, 1.072988538908248e-06
3, 39, 0, 1.068495748768328e-06
3, 40, 0, 9.509299161436502e-07
3, 41, 0, 9.989901172957616e-07
3, 42, 0, 1.016900000649912e-06
3, 43, 0, 1.016876581161341e-06
3, 44, 0, 1.007632249638846e-06
3, 45, 0, 1.076823537005112e-06
3, 46, 0, 1.04065156847355e-06
3, 47, 0, 9.642608347348869e-07
3, 48, 0, 1.061595071405463e-06
3, 49, 0, 9.848331501416396e-07
3, 50, 0, 1.033821263263235e-06
3, 51, 0, 9.85487645266403e-07
3, 52, 0, 1.019791625367361e-06
3, 53, 0, 1.064093339664396e-06
3, 54, 0, 1.040936581375718e-06
3, 55, 0, 1.047275191012886e-06
3, 56, 0, 9.971383860829519e-07
3, 57, 0, 1.052608354257245e-06
3, 58, 0, 9.865561878541484e-07
3, 59, 0, 1.001951432044734e-06
3, 60, 0, 1.055569214258867e-06
3, 61, 0, 1.08065478343633e-06
3, 62, 0, 9.733801107358886e-07
3, 63, 0, 9.740509767652838e-07
3, 64, 0, 1.056213818628748e-06
3, 65, 0, 1.000568659037526e-06
3, 66, 0, 1.015697876027843e-06
3, 67, 0, 1.091494596039411e-06
3, 68, 0, 1.044117766468844e-06
3, 69, 0, 1.045033286573016e-06
3, 70, 0, 9.052815812538029e-07
3, 71, 0, 9.888382237477344e-07
3, 72, 0, 9.811831205297494e-07
3, 73, 0, 1.002574094854936e-06
3, 74, 0, 1.055840357366833e-06
3, 75, 0, 1.011233393910516e-06
3, 76, 0, 1.089548504751292e-06
3, 77, 0, 1.02305102700484e-06
3, 78, 0, 1.057108079294267e-06
3, 79, 0, 1.013265432447952e-06
3, 80, 0, 9.628397492633667e-07
3, 81, 0, 9.902013289320166e-07
3, 82, 0, 1.014921963360393e-06
3, 83, 0, 1.047206978910253e-06
3, 84, 0, 1.091755166271469e-06
3, 85, 0, 1.006236857392651e-06
3, 86, 0, 9.82215283329424e-07
3, 87, 0, 1.034367983265838e-06
3, 88, 0, 1.035779746416665e-06
3, 89, 0, 1.02974934179656e-06
3, 90, 0, 9.405127343597997e-07
3, 91, 0, 9.202431101584807e-07
3, 92, 0, 9.760356078913901e-07
3, 93, 0, 1.107707817027404e-06
3, 94, 0, 9.884711289487313e-07
3, 95, 0, 9.956135045285919e-07
3, 96, 0, 9.916308272295282e-07
3, 97, 0, 9.221851655638602e-07
3, 98, 0, 1.005811441245896e-06
3, 99, 0, 9.778059393283911e-07
3, 100, 0, 1.004728915177111e-06
3, 101, 0, 9.493371635471703e-07
3, 102, 0, 1.054202584782615e-06
3, 103, 0, 1.035792820403003e-06
3, 104, 0, 1.052296397574537e-06
3, 105, 0, 1.024425159812381e-06
3, 106, 0, 9.582248594597331e-07
3, 107, 0, 1.01627040294261e-06
3, 108, 0, 9.722266440803651e-07
3, 109, 0, 1.030097337206826e-06
3, 110, 0, 1.020657236949774e-06
3, 111, 0, 1.026675704451918e-06
3, 112, 0, 1.07894027223665e-06
3, 113, 0, 1.03803290585347e-06
3, 114, 0, 9.127131761488272e-07
3, 115, 0, 9.987501243813313e-07
3, 116, 0, 1.023748041006911e-06
3, 117, 0, 1.041366772369656e-06
3, 118, 0, 9.945645160769345e-07
3, 119, 0, 9.671450698078843e-07
3, 120, 0, 1.016462420011521e-06
3, 121, 0, 9.151860353995289e-07
3, 122, 0, 9.210146458826785e-07
3, 123, 0, 9.333043067272229e-07
3, 124, 0, 9.731085128805717e-07
3, 125, 0, 9.89147565633175e-07
3, 126, 0, 1.113525627260969e-06
3, 127, 0, 9.668326583778253e-07
3, 128, 0, 9.531289038022805e-07
3, 129, 0, 1.019599380924774e-06
3, 130, 0, 1.020699301079731e-06
3, 131, 0, 1.019144406200212e-06
3, 132, 0, 1.055984853337577e-06
3, 133, 0, 1.079013827620656e-06
3, 134, 0, 1.013906739899539e-06
3, 135, 0, 9.975661896532984e-07
3, 136, 0, 1.025633196150011e-06
3, 137, 0, 9.998461791838054e-07
3, 138, 0, 8.823745361041802e-07
3, 139, 0, 9.604120805306593e-07
3, 140, 0, 1.030973180604633e-06
3, 141, 0, 9.441861834602605e-07
3, 142, 0, 1.000030920295103e-06
3, 143, 0, 9.846232842392055e-07
3, 144, 0, 1.012988036563911e-06
3, 145, 0, 9.392128390572907e-07
3, 146, 0, 1.011891185953573e-06
3, 147, 0, 1.008830736282107e-06
3, 148, 0, 1.020844706545176e-06
3, 149, 0, 9.330900070381176e-07
3, 150, 0, 1.007693526844378e-06
3, 151, 0, 1.05596222965687e-06
3, 152, 0, 1.028083488563425e-06
3, 153, 0, 1.051025151355134e-06
3, 154, 0, 1.003066927296459e-06
3, 155, 0, 1.03627849057375e-06
3, 156, 0, 9.961009936887422e-07
3, 157, 0, 9.726499001772027e-07
3, 158, 0, 1.012294887914322e-06
3, 159, 0, 1.014302370094811e-06
3, 160, 0, 1.017567683447851e-06
3, 161, 0, 1.035553168549086e-06
3, 162, 0, 1.024657194648171e-06
3, 163, 0, 9.521054380456917e-07
3, 164, 0, 1.060110662365332e-06
3, 165, 0, 1.069879544957075e-06
3, 166, 0, 9.687319106888026e-07
3, 167, 0, 1.037172978612944e-06
3, 168, 0, 1.033503394864965e-06
3, 169, 0, 1.065569335878536e-06
3, 170, 0, 9.736058927956037e-07
3, 171, 0, 9.456218208470091e-07
3, 172, 0, 9.695040716906078e-07
3, 173, 0, 9.383376777805097e-07
3, 174, 0, 9.989257705456112e-07
3, 175, 0, 1.053334699463448e-06
3, 176, 0, 9.67311393651471e-07
3, 177, 0, 1.045176077241194e-06
3, 178, 0, 9.802989779927884e-07
3, 179, 0, 1.036364892570418e-06
3, 180, 0, 1.102728901969385e-06
3, 181, 0, 1.060329395841109e-06
3, 182, 0, 9.775833405001322e-07
3, 183, 0, 9.929530051522306e-07
3, 184, 0, 1.026560653372144e-06
3, 185, 0, 9.61652062869689e-07
3, 186, 0, 1.026675363391405e-06
3, 187, 0, 1.065055243998358e-06
3, 188, 0, 1.031822421282413e-06
3, 189, 0, 1.06174445591023e-06
3, 190, 0, 9.001976764011488e-07
3, 191, 0, 9.879393019218696e-07
3, 192, 0, 1.040963184095745e-06
3, 193, 0, 9.571850796419312e-07
3, 194, 0, 9.369413191961939e-07
3, 195, 0, 8.705632694727683e-07
3, 196, 0, 9.150480764219537e-07
3, 197, 0, 9.617864407118759e-07
3, 198, 0, 1.045878661898314e-06
3, 199, 0, 1.031596298162185e-06
3, 200, 0, 9.334404467153945e-07
3, 201, 0, 1.054436552294646e-06
3, 202, 0, 9.20055128972308e-07
3, 203, 0, 8.953904284680902e-07
3, 204, 0, 8.736395216146775e-07
3, 205, 0, 8.350870075446437e-07
3, 206, 0, 6.764137765458145e-07
3, 207, 0, 5.10208849391347e-07
4, 0, 0, 5.591304557128751e-07
4, 1, 0, 7.942510933389713e-07
4, 2, 0, 8.739616532693617e-07
4, 3, 0, 9.094321740121813e-07
4, 4, 0, 9.929333373293048e-07
4, 5, 0, 1.046182205755031e-06
4, 6, 0, 1.046129568749166e-06
4, 7, 0, 9.369467193209857e-07
4, 8, 0, 9.990360467782011e-07
4, 9, 0, 1.007837227007258e-06
4, 10, 0, 1.01568707577826e-06
4, 11, 0, 1.089527813746827e-06
4, 12, 0, 1.080269953490642e-06
4, 13, 0, 1.049057232194173e-06
4, 14, 0, 1.165811795544869e-06
4, 15, 0, 1.073159523912182e-06
4, 16, 0, 1.11760027721175e-06
4, 17, 0, 1.061839498106565e-06
4, 18, 0, 1.063167246684316e-06
4, 19, 0, 1.066152321982372e-06
4, 20, 0, 9.972659427148756e-07
4, 21, 0, 1.177092940451985e-06
4, 22, 0, 1.053689970831329e-06
4, 23, 0, 1.169884853879921e-06
4, 24, 0, 1.052500124387734e-06
4, 25, 0, 1.053091523317562e-06
4, 26, 0, 1.115094505621528e-06
4, 27, 0, 1.141394704973209e-06
4, 28, 0, 1.015431507767062e-06
4, 29, 0, 9.768629070094903e-07
4, 30, 0, 1.028244810186152e-06
4, 31, 0, 1.069676045517554e-06
4, 32, 0, 1.099367636925308e-06
4, 33, 0, 9.984725011236151e-07
4, 34, 0, 1.088993485609535e-06
4, 35, 0, 9.715952273836592e-07
4, 36, 0, 1.029524582918384e-06
4, 37, 0, 1.145124201684666e-06
4, 38, 0, 1.16473393063643e-06
4, 39, 0, 1.110195967157779e-06
4, 40, 0, 1.087483383344079e-06
4, 41, 0, 1.036403546095244e-06
4, 42, 0, 1.149984996118292e-06
4, 43, 0, 1.075538875738857e-06
4, 44, 0, 1.049870093083882e-06
4, 45, 0, 1.081261871149763e-06
4, 46, 0, 9.630771273805294e-07
4, 47, 0, 1.022682454276946e-06
4, 48, 0, 1.024759171741607e-06
4, 49, 0, 1.109362642637279e-06
4, 50, 0, 1.064897105607088e-06
4, 51, 0, 1.137422032115865e-06
4, 52, 0, 1.281444497180928e-06
4, 53, 0, 1.139095161306614e-06
4, 54, 0, 1.045868657456595e-06
4, 55, 0, 1.063773538589885e-06
4, 56, 0, 9.320935419054877e-07
4, 57, 0, 1.004136606752581e-06
4, 58, 0, 1.127864607042284e-06
4, 59, 0, 1.122225057770265e-06
4, 60, 0, 1.175475176751206e-06
4, 61, 0, 1.258060933650995e-06
4, 62, 0, 1.012471557260142e-06
4, 63, 0, 1.086513066184125e-06
4, 64, 0, 1.122450612456305e-06
4, 65, 0, 1.09436678030761e-06
4, 66, 0, 1.031525926009635e-06
4, 67, 0, 1.117175543186022e-06
4, 68, 0, 9.796470976652927e-07
4, 69, 0, 1.099222686207213e-06
4, 70, 0, 1.071871679414471e-06
4, 71, 0, 1.098725192605343e-06
4, 72, 0, 1.091037802325445e-06
4, 73, 0, 1.115680561269983e-06
4, 74, 0, 1.144001885222679e-06
4, 75, 0, 1.054683934853529e-06
4, 76, 0, 1.046638544721645e-06
4, 77, 0, 1.165261778623972e-06
4, 78, 0, 1.026779841595271e-06
4, 79, 0, 1.005007334242691e-06
4, 80, 0, 1.073896669367969e-06
4, 81, 0, 9.99694407255447e-07
4, 82, 0, 1.087372652364138e-06
4, 83, 0, 1.01920238648745e-06
4, 84, 0, 1.044963823915168e-06
4, 85, 0, 1.03623608538328e-06
4, 86, 0, 1.02839760529605e-06
4, 87, 0, 9.958139344234951e-07
4, 88, 0, 1.001215650831e-06
