# TOPAS Version: 3.9
# Parameter File: simulacao.txt
# Results for scorer: Dose3
# Scored in component: Camada3
# X in 158 bins of 0.109089 cm
# Y in 208 bins of 0.121885 cm
# Z in 1 bin  of 1.448 cm
# DoseToMedium ( Gy ) : Sum   
0, 0, 0, 3.418039682401286e-07
0, 1, 0, 3.831401045317762e-07
0, 2, 0, 4.807746449841943e-07
0, 3, 0, 5.601999077953224e-07
0, 4, 0, 5.524124162548105e-07
0, 5, 0, 5.714800295208988e-07
0, 6, 0, 6.644703489655512e-07
0, 7, 0, 5.47560659924784e-07
0, 8, 0, 5.745353064412484e-07
0, 9, 0, 6.333480087050702e-07
0, 10, 0, 5.819835564579989e-07
0, 11, 0, 6.399856147254468e-07
0, 12, 0, 5.898183985664218e-07
0, 13, 0, 5.73664408420882e-07
0, 14, 0, 5.808605578749848e-07
0, 15, 0, 6.473871962953126e-07
0, 16, 0, 5.386081625147199e-07
0, 17, 0, 7.056080448819557e-07
0, 18, 0, 6.573671385012858e-07
0, 19, 0, 5.772388931291061e-07
0, 20, 0, 5.995208880449354e-07
0, 21, 0, 6.279074682424834e-07
0, 22, 0, 5.618595082523825e-07
0, 23, 0, 5.518175498764322e-07
0, 24, 0, 6.321299679257208e-07
0, 25, 0, 5.579130970545521e-07
0, 26, 0, 6.564559384969471e-07
0, 27, 0, 6.150874582999677e-07
0, 28, 0, 5.275845751384622e-07
0, 29, 0, 6.183126401992922e-07
0, 30, 0, 6.056803840692737e-07
0, 31, 0, 6.002777581670671e-07
0, 32, 0, 5.929075541644124e-07
0, 33, 0, 6.051193963685364e-07
0, 34, 0, 5.724146490138082e-07
0, 35, 0, 5.575400336965686e-07
0, 36, 0, 6.094305717851967e-07
0, 37, 0, 6.221425792318769e-07
0, 38, 0, 6.072274345569895e-07
0, 39, 0, 6.007929869156214e-07
0, 40, 0, 6.068096922717814e-07
0, 41, 0, 6.454551453316526e-07
0, 42, 0, 6.294732770584233e-07
0, 43, 0, 6.270657877394115e-07
0, 44, 0, 5.92338437854778e-07
0, 45, 0, 5.705726948690426e-07
0, 46, 0, 6.241683649932384e-07
0, 47, 0, 6.355832056215149e-07
0, 48, 0, 6.132417524895573e-07
0, 49, 0, 6.169071298245399e-07
0, 50, 0, 5.251730499367113e-07
0, 51, 0, 5.794265121039643e-07
0, 52, 0, 5.814758878841531e-07
0, 53, 0, 5.869631536370434e-07
0, 54, 0, 5.784227141703013e-07
0, 55, 0, 6.011804885019956e-07
0, 56, 0, 6.168579034238064e-07
0, 57, 0, 6.825034688517917e-07
0, 58, 0, 6.749399972250103e-07
0, 59, 0, 5.722566243093752e-07
0, 60, 0, 5.89366663916735e-07
0, 61, 0, 6.266233185669989e-07
0, 62, 0, 5.596694450105133e-07
0, 63, 0, 6.747940233253757e-07
0, 64, 0, 6.952866442588856e-07
0, 65, 0, 6.396674621100829e-07
0, 66, 0, 6.133506644800946e-07
0, 67, 0, 5.94629455008544e-07
0, 68, 0, 5.890137231290282e-07
0, 69, 0, 6.369901939251577e-07
0, 70, 0, 6.214933137016487e-07
0, 71, 0, 6.620071530960558e-07
0, 72, 0, 5.927657866777736e-07
0, 73, 0, 5.877421926925308e-07
0, 74, 0, 5.72155840927735e-07
0, 75, 0, 6.616926953029179e-07
0, 76, 0, 6.01692818236188e-07
0, 77, 0, 5.84616770993307e-07
0, 78, 0, 6.122598961155745e-07
0, 79, 0, 5.876848945263191e-07
0, 80, 0, 5.326413656803197e-07
0, 81, 0, 5.710598998120986e-07
0, 82, 0, 6.652078354818514e-07
0, 83, 0, 6.978979740779323e-07
0, 84, 0, 5.930360771344567e-07
0, 85, 0, 5.411876600192045e-07
0, 86, 0, 5.82810514515586e-07
0, 87, 0, 6.439862545448705e-07
0, 88, 0, 5.794822754978668e-07
0, 89, 0, 6.897300863784039e-07
0, 90, 0, 5.714219923902419e-07
0, 91, 0, 5.925058417233231e-07
0, 92, 0, 6.605351927646552e-07
0, 93, 0, 6.036485160620941e-07
0, 94, 0, 5.758570296165999e-07
0, 95, 0, 5.841487222824071e-07
0, 96, 0, 6.65147126710508e-07
0, 97, 0, 6.569117658727919e-07
0, 98, 0, 6.410718924598768e-07
0, 99, 0, 6.318558121165552e-07
0, 100, 0, 6.043997586857586e-07
0, 101, 0, 6.254693971641245e-07
0, 102, 0, 7.152997909543046e-07
0, 103, 0, 6.475988243437314e-07
0, 104, 0, 6.425377705454594e-07
0, 105, 0, 6.273500616771344e-07
0, 106, 0, 6.244309815883753e-07
0, 107, 0, 5.744107056671055e-07
0, 108, 0, 5.491385763889411e-07
0, 109, 0, 5.930124871156295e-07
0, 110, 0, 5.635480988530617e-07
0, 111, 0, 6.006407602399122e-07
0, 112, 0, 5.76326613099809e-07
0, 113, 0, 5.85476414016739e-07
0, 114, 0, 6.32863759619795e-07
0, 115, 0, 5.895186632187688e-07
0, 116, 0, 6.353472485898237e-07
0, 117, 0, 6.585601681763364e-07
0, 118, 0, 6.61089472941967e-07
0, 119, 0, 6.073343001844478e-07
0, 120, 0, 6.460551276177284e-07
0, 121, 0, 6.222734327820945e-07
0, 122, 0, 6.023183232173324e-07
0, 123, 0, 6.296402261796175e-07
0, 124, 0, 6.627316224694368e-07
0, 125, 0, 5.923987487221893e-07
0, 126, 0, 5.719150522054406e-07
0, 127, 0, 5.972943313281576e-07
0, 128, 0, 6.208934451024106e-07
0, 129, 0, 6.660894200649636e-07
0, 130, 0, 6.21572837644635e-07
0, 131, 0, 6.479004923676257e-07
0, 132, 0, 6.136394290479075e-07
0, 133, 0, 6.086680741645978e-07
0, 134, 0, 7.042446554805792e-07
0, 135, 0, 6.666143121947243e-07
0, 136, 0, 5.845874966325937e-07
0, 137, 0, 6.001527026455733e-07
0, 138, 0, 6.14622990724456e-07
0, 139, 0, 6.223535820026882e-07
0, 140, 0, 6.477009151240054e-07
0, 141, 0, 6.360035627039906e-07
0, 142, 0, 6.253548008317011e-07
0, 143, 0, 5.299066287989262e-07
0, 144, 0, 5.609649065263511e-07
0, 145, 0, 6.050998422324483e-07
0, 146, 0, 5.317961608852784e-07
0, 147, 0, 5.711349899684137e-07
0, 148, 0, 6.596581556550518e-07
0, 149, 0, 5.796159712190274e-07
0, 150, 0, 5.58395811367518e-07
0, 151, 0, 5.847370516676165e-07
0, 152, 0, 5.785105372524413e-07
0, 153, 0, 5.370052917896828e-07
0, 154, 0, 5.648747105624352e-07
0, 155, 0, 6.369298262143275e-07
0, 156, 0, 6.234353122636094e-07
0, 157, 0, 6.371331551235926e-07
0, 158, 0, 6.013368647472817e-07
0, 159, 0, 5.560928570957913e-07
0, 160, 0, 5.780851779491059e-07
0, 161, 0, 6.067546678423241e-07
0, 162, 0, 6.381814046108047e-07
0, 163, 0, 6.608562443943811e-07
0, 164, 0, 5.710350023946376e-07
0, 165, 0, 6.113685344644182e-07
0, 166, 0, 6.025530865372275e-07
0, 167, 0, 6.256809683691245e-07
0, 168, 0, 6.295877028605901e-07
0, 169, 0, 6.230736175893981e-07
0, 170, 0, 6.377472345775459e-07
0, 171, 0, 6.457973995566135e-07
0, 172, 0, 6.143494601928978e-07
0, 173, 0, 6.315756309049902e-07
0, 174, 0, 6.637635010520171e-07
0, 175, 0, 6.126297193986829e-07
0, 176, 0, 5.706792762794066e-07
0, 177, 0, 6.180346758810629e-07
0, 178, 0, 5.764206321146048e-07
0, 179, 0, 5.697079359379131e-07
0, 180, 0, 5.711144126507861e-07
0, 181, 0, 5.866008905286435e-07
0, 182, 0, 6.35314052033209e-07
0, 183, 0, 6.156193421702483e-07
0, 184, 0, 5.990842169012467e-07
0, 185, 0, 5.561984153246158e-07
0, 186, 0, 5.993463219056139e-07
0, 187, 0, 6.766580327166594e-07
0, 188, 0, 6.859972359052335e-07
0, 189, 0, 6.422217779800121e-07
0, 190, 0, 6.29539556484815e-07
0, 191, 0, 6.317483212114894e-07
0, 192, 0, 6.363300144585082e-07
0, 193, 0, 6.014779501128942e-07
0, 194, 0, 5.786719157185871e-07
0, 195, 0, 5.378196306082828e-07
0, 196, 0, 5.944872327745543e-07
0, 197, 0, 6.594908086299256e-07
0, 198, 0, 6.280720299400855e-07
0, 199, 0, 6.113051540523884e-07
0, 200, 0, 6.015250733071298e-07
0, 201, 0, 6.323734851321205e-07
0, 202, 0, 5.770399411630933e-07
0, 203, 0, 5.432881380329491e-07
0, 204, 0, 6.044808174010541e-07
0, 205, 0, 4.714052010967862e-07
0, 206, 0, 4.545820786461263e-07
0, 207, 0, 2.96826527801386e-07
1, 0, 0, 4.758648231018014e-07
1, 1, 0, 6.639855314460874e-07
1, 2, 0, 6.723692536070303e-07
1, 3, 0, 7.995081432454754e-07
1, 4, 0, 7.965763870743103e-07
1, 5, 0, 8.511711939718225e-07
1, 6, 0, 9.364784432364104e-07
1, 7, 0, 9.063051606972294e-07
1, 8, 0, 9.315350553151802e-07
1, 9, 0, 9.154478561868018e-07
1, 10, 0, 8.574922389925632e-07
1, 11, 0, 8.523239785063197e-07
1, 12, 0, 8.53923495469644e-07
1, 13, 0, 8.405790481447184e-07
1, 14, 0, 9.001615808301722e-07
1, 15, 0, 8.570724503442761e-07
1, 16, 0, 8.119144467855222e-07
1, 17, 0, 8.650388849673618e-07
1, 18, 0, 9.221976142725907e-07
1, 19, 0, 8.550960046704859e-07
1, 20, 0, 8.578626875532791e-07
1, 21, 0, 7.78237335907761e-07
1, 22, 0, 7.421089094350464e-07
1, 23, 0, 7.685813443458756e-07
1, 24, 0, 8.702835998519731e-07
1, 25, 0, 9.464910704082286e-07
1, 26, 0, 9.077388654077367e-07
1, 27, 0, 8.6701743384765e-07
1, 28, 0, 8.407280347455526e-07
1, 29, 0, 8.254534691332083e-07
1, 30, 0, 8.699428235559026e-07
1, 31, 0, 8.683617238602892e-07
1, 32, 0, 8.090694905149576e-07
1, 33, 0, 8.657576131554379e-07
1, 34, 0, 9.591267371433787e-07
1, 35, 0, 9.567330607751501e-07
1, 36, 0, 9.20418983696436e-07
1, 37, 0, 8.911246709430998e-07
1, 38, 0, 9.033916512635187e-07
1, 39, 0, 8.511328246640915e-07
1, 40, 0, 7.932633820928459e-07
1, 41, 0, 8.521749350620667e-07
1, 42, 0, 8.502734658577538e-07
1, 43, 0, 7.854201271584316e-07
1, 44, 0, 8.498918759869412e-07
1, 45, 0, 9.102488434109546e-07
1, 46, 0, 7.703881692577852e-07
1, 47, 0, 9.328851433565433e-07
1, 48, 0, 8.921672360884259e-07
1, 49, 0, 9.3777481424695e-07
1, 50, 0, 8.447819936918677e-07
1, 51, 0, 8.535934057363193e-07
1, 52, 0, 8.693958761796239e-07
1, 53, 0, 8.779626909927174e-07
1, 54, 0, 9.856844371824991e-07
1, 55, 0, 8.434982419203152e-07
1, 56, 0, 8.409209044657473e-07
1, 57, 0, 8.753777365200222e-07
1, 58, 0, 9.560145599607495e-07
1, 59, 0, 8.67139931415295e-07
1, 60, 0, 8.617162734481099e-07
1, 61, 0, 9.529596241009131e-07
1, 62, 0, 8.564219342588331e-07
1, 63, 0, 8.881307849151199e-07
1, 64, 0, 8.388539640691306e-07
1, 65, 0, 8.85493420810235e-07
1, 66, 0, 8.670925240039651e-07
1, 67, 0, 9.022404015013308e-07
1, 68, 0, 8.82804613411281e-07
1, 69, 0, 8.572076239943272e-07
1, 70, 0, 9.41198265991261e-07
1, 71, 0, 9.012884447656688e-07
1, 72, 0, 9.147036053036572e-07
1, 73, 0, 9.404574257132481e-07
1, 74, 0, 8.588548894294945e-07
1, 75, 0, 9.065067274605099e-07
1, 76, 0, 8.923161090024223e-07
1, 77, 0, 7.794257044224651e-07
1, 78, 0, 8.516306024830556e-07
1, 79, 0, 8.266225108854997e-07
1, 80, 0, 8.094914392131614e-07
1, 81, 0, 8.565814937355754e-07
1, 82, 0, 8.931261277211888e-07
1, 83, 0, 8.600902674515964e-07
1, 84, 0, 8.394774795306148e-07
1, 85, 0, 9.300207466367283e-07
1, 86, 0, 9.008744541461056e-07
1, 87, 0, 9.254707720174338e-07
1, 88, 0, 8.602237926425005e-07
1, 89, 0, 8.191483971131674e-07
1, 90, 0, 8.289435413644242e-07
1, 91, 0, 8.562780635656964e-07
1, 92, 0, 8.85255303728627e-07
1, 93, 0, 8.987624369183322e-07
1, 94, 0, 8.137388363138598e-07
1, 95, 0, 8.398649242735701e-07
1, 96, 0, 8.642741136100085e-07
1, 97, 0, 7.966648354340577e-07
1, 98, 0, 9.511625194136286e-07
1, 99, 0, 8.8340942738796e-07
1, 100, 0, 8.628726959614141e-07
1, 101, 0, 8.998438829621591e-07
1, 102, 0, 9.709211781228078e-07
1, 103, 0, 8.944446108216653e-07
1, 104, 0, 8.757079967836034e-07
1, 105, 0, 8.49876812480943e-07
1, 106, 0, 9.914465408655815e-07
1, 107, 0, 9.020084803523787e-07
1, 108, 0, 8.808470397525525e-07
1, 109, 0, 1.0420302487546e-06
1, 110, 0, 8.980007919490163e-07
1, 111, 0, 8.896760732568509e-07
1, 112, 0, 9.378726986142283e-07
1, 113, 0, 9.703620662548929e-07
1, 114, 0, 9.1554375103442e-07
1, 115, 0, 9.542878842694336e-07
1, 116, 0, 8.242416242865147e-07
1, 117, 0, 9.260183446713199e-07
1, 118, 0, 8.759906791055982e-07
1, 119, 0, 8.610446684542694e-07
1, 120, 0, 8.989671869130689e-07
1, 121, 0, 8.47407761739305e-07
1, 122, 0, 8.539326472600806e-07
1, 123, 0, 9.572594308338012e-07
1, 124, 0, 8.755429234952317e-07
1, 125, 0, 8.99852921065758e-07
1, 126, 0, 8.951300287662889e-07
1, 127, 0, 7.975247626745841e-07
1, 128, 0, 8.951811309998448e-07
1, 129, 0, 8.759633374211262e-07
1, 130, 0, 8.70120686613518e-07
1, 131, 0, 8.689587502885843e-07
1, 132, 0, 9.667354561315733e-07
1, 133, 0, 9.260609772354655e-07
1, 134, 0, 9.686416433396516e-07
1, 135, 0, 9.468432153880713e-07
1, 136, 0, 9.105029334932624e-07
1, 137, 0, 8.550771326554241e-07
1, 138, 0, 9.369036320094892e-07
1, 139, 0, 8.619271625320835e-07
1, 140, 0, 8.708226459930302e-07
1, 141, 0, 8.598693170824845e-07
1, 142, 0, 9.165088954432576e-07
1, 143, 0, 9.305972525908146e-07
1, 144, 0, 8.492530696457834e-07
1, 145, 0, 8.869253065313387e-07
1, 146, 0, 8.60570310123876e-07
1, 147, 0, 7.992584301064198e-07
1, 148, 0, 9.33483534026891e-07
1, 149, 0, 8.100744253169978e-07
1, 150, 0, 8.264303801297501e-07
1, 151, 0, 8.784854230725614e-07
1, 152, 0, 8.543470926269947e-07
1, 153, 0, 8.895655696505855e-07
1, 154, 0, 8.294338158520986e-07
1, 155, 0, 9.447480806556996e-07
1, 156, 0, 8.627817464912368e-07
1, 157, 0, 8.812716600914428e-07
1, 158, 0, 8.427789452980505e-07
1, 159, 0, 8.50696437737497e-07
1, 160, 0, 9.38818232043559e-07
1, 161, 0, 9.476199807068042e-07
1, 162, 0, 9.219883168043452e-07
1, 163, 0, 9.245034107152605e-07
1, 164, 0, 8.659440595693013e-07
1, 165, 0, 8.83032498677494e-07
1, 166, 0, 8.744551109884924e-07
1, 167, 0, 9.322403116129863e-07
1, 168, 0, 9.103079605665698e-07
1, 169, 0, 8.972274940788338e-07
1, 170, 0, 8.403314382121607e-07
1, 171, 0, 9.325179348707024e-07
1, 172, 0, 8.87186956788355e-07
1, 173, 0, 8.677981213622843e-07
1, 174, 0, 8.551297696612892e-07
1, 175, 0, 9.217117735715874e-07
1, 176, 0, 9.359774253425712e-07
1, 177, 0, 9.049822438100819e-07
1, 178, 0, 9.378472327625786e-07
1, 179, 0, 8.138605380736408e-07
1, 180, 0, 9.705712500363006e-07
1, 181, 0, 8.418899142270675e-07
1, 182, 0, 9.236665050593729e-07
1, 183, 0, 8.645478715152422e-07
1, 184, 0, 8.854791531121009e-07
1, 185, 0, 8.462804430564574e-07
1, 186, 0, 8.066071472967451e-07
1, 187, 0, 8.539050213585142e-07
1, 188, 0, 9.09869299903221e-07
1, 189, 0, 8.683481951266003e-07
1, 190, 0, 8.52796745220985e-07
1, 191, 0, 9.618099738872843e-07
1, 192, 0, 1.032638806464092e-06
1, 193, 0, 8.256858450295113e-07
1, 194, 0, 8.630746606286266e-07
1, 195, 0, 7.909428632046911e-07
1, 196, 0, 8.701219940121518e-07
1, 197, 0, 7.750308554932417e-07
1, 198, 0, 8.520917731402733e-07
1, 199, 0, 9.211717610924097e-07
1, 200, 0, 9.49275658967963e-07
1, 201, 0, 9.34762169890746e-07
1, 202, 0, 7.477816552636796e-07
1, 203, 0, 8.143994705278601e-07
1, 204, 0, 8.143197760546173e-07
1, 205, 0, 7.801062338330667e-07
1, 206, 0, 6.418758857762441e-07
1, 207, 0, 4.009533824955724e-07
2, 0, 0, 5.357062491384568e-07
2, 1, 0, 7.908041084192519e-07
2, 2, 0, 8.815576961751503e-07
2, 3, 0, 9.186178431264125e-07
2, 4, 0, 9.08707022517774e-07
2, 5, 0, 1.03512934401806e-06
2, 6, 0, 1.046771444634942e-06
2, 7, 0, 1.044378223014064e-06
2, 8, 0, 9.887285159493331e-07
2, 9, 0, 1.052122229339147e-06
2, 10, 0, 1.017886802401335e-06
2, 11, 0, 9.913575240716455e-07
2, 12, 0, 1.107033426706039e-06
2, 13, 0, 1.125420908465458e-06
2, 14, 0, 1.094455228667357e-06
2, 15, 0, 1.067409129973385e-06
2, 16, 0, 1.151986680270056e-06
2, 17, 0, 1.029122472573363e-06
2, 18, 0, 1.00794341051369e-06
2, 19, 0, 9.871466772892745e-07
2, 20, 0, 1.019942146740505e-06
2, 21, 0, 9.2034343879277e-07
2, 22, 0, 9.467431709708762e-07
2, 23, 0, 1.116090174946294e-06
2, 24, 0, 1.10953976673045e-06
2, 25, 0, 1.028583938023075e-06
2, 26, 0, 1.033769990499422e-06
2, 27, 0, 1.004219257083605e-06
2, 28, 0, 1.003519287223753e-06
2, 29, 0, 1.012645839182369e-06
2, 30, 0, 1.047053501679329e-06
2, 31, 0, 1.00797581126244e-06
2, 32, 0, 9.373306966153905e-07
2, 33, 0, 1.003676402433484e-06
2, 34, 0, 1.092277216230286e-06
2, 35, 0, 1.216606619891536e-06
2, 36, 0, 1.039610083353182e-06
2, 37, 0, 1.001672671918641e-06
2, 38, 0, 9.919743888531229e-07
2, 39, 0, 1.090453224605881e-06
2, 40, 0, 1.020489321490459e-06
2, 41, 0, 1.000646761895041e-06
2, 42, 0, 1.032963382385788e-06
2, 43, 0, 9.967533287635888e-07
2, 44, 0, 1.054575704984018e-06
2, 45, 0, 1.04128776001744e-06
2, 46, 0, 1.014052145364985e-06
2, 47, 0, 1.040250481310068e-06
2, 48, 0, 1.09245218027354e-06
2, 49, 0, 1.029625423143443e-06
2, 50, 0, 9.835986247708206e-07
2, 51, 0, 1.080481524695642e-06
2, 52, 0, 1.003918441710994e-06
2, 53, 0, 1.029693748932914e-06
2, 54, 0, 1.122693106481165e-06
2, 55, 0, 1.064383695847937e-06
2, 56, 0, 1.068545202542737e-06
2, 57, 0, 1.050084733833501e-06
2, 58, 0, 9.625197208151803e-07
2, 59, 0, 1.002982116915518e-06
2, 60, 0, 1.12380860173289e-06
2, 61, 0, 1.015618295241438e-06
2, 62, 0, 9.948900014933315e-07
2, 63, 0, 1.074331180461741e-06
2, 64, 0, 1.011072640721977e-06
2, 65, 0, 1.080082597582077e-06
2, 66, 0, 1.035122522807796e-06
2, 67, 0, 1.077007937055896e-06
2, 68, 0, 1.137045614996168e-06
2, 69, 0, 1.028410906656063e-06
2, 70, 0, 1.084868586076482e-06
2, 71, 0, 1.176317368845048e-06
2, 72, 0, 1.212706024489307e-06
2, 73, 0, 1.044818645823398e-06
2, 74, 0, 1.135099637394887e-06
2, 75, 0, 1.111592609959189e-06
2, 76, 0, 1.066339223143586e-06
2, 77, 0, 1.01606178759539e-06
2, 78, 0, 1.025754727379535e-06
2, 79, 0, 1.088458134290704e-06
2, 80, 0, 1.096590835913958e-06
2, 81, 0, 1.046099214363494e-06
2, 82, 0, 1.092824277293403e-06
2, 83, 0, 1.037528477354499e-06
2, 84, 0, 1.096630853680836e-06
2, 85, 0, 1.066291815732257e-06
2, 86, 0, 9.868398365142639e-07
2, 87, 0, 9.978770094676293e-07
2, 88, 0, 1.044493842528027e-06
2, 89, 0, 1.011442691378761e-06
2, 90, 0, 1.101348630072607e-06
2, 91, 0, 1.117459191846137e-06
2, 92, 0, 1.023363552121737e-06
2, 93, 0, 1.050421701620508e-06
2, 94, 0, 1.079310209206596e-06
2, 95, 0, 1.037670585901651e-06
2, 96, 0, 1.080012907550554e-06
2, 97, 0, 1.036402068166353e-06
2, 98, 0, 1.063053673533432e-06
2, 99, 0, 1.088777366931026e-06
2, 100, 0, 1.067848870661692e-06
2, 101, 0, 9.604509614291601e-07
2, 102, 0, 1.078167201740143e-06
2, 103, 0, 1.024529069582059e-06
2, 104, 0, 1.091527792596025e-06
2, 105, 0, 1.177037120214663e-06
2, 106, 0, 1.121837726714148e-06
2, 107, 0, 1.192479658129741e-06
2, 108, 0, 1.037723677654867e-06
2, 109, 0, 1.221047796207131e-06
2, 110, 0, 1.071825522558356e-06
2, 111, 0, 1.005147737487277e-06
2, 112, 0, 1.061836883309297e-06
2, 113, 0, 9.756159897733596e-07
2, 114, 0, 9.933471574186115e-07
2, 115, 0, 1.047024852596223e-06
2, 116, 0, 1.003294983092928e-06
2, 117, 0, 1.054103449860122e-06
2, 118, 0, 9.877313686956768e-07
2, 119, 0, 1.000374936666049e-06
2, 120, 0, 1.010697587844334e-06
2, 121, 0, 1.089247689378681e-06
2, 122, 0, 1.031386432259751e-06
2, 123, 0, 1.076943703992583e-06
2, 124, 0, 1.082059043255867e-06
2, 125, 0, 1.049835645972053e-06
2, 126, 0, 1.065661990651279e-06
2, 127, 0, 9.678433343651704e-07
2, 128, 0, 9.905112392516457e-07
2, 129, 0, 9.973558690035134e-07
2, 130, 0, 1.130874920818314e-06
2, 131, 0, 9.621285244065803e-07
2, 132, 0, 1.057529971149052e-06
2, 133, 0, 1.05845913367375e-06
2, 134, 0, 9.945633792085573e-07
2, 135, 0, 1.08005599486205e-06
2, 136, 0, 1.0428575478727e-06
2, 137, 0, 9.629229680285789e-07
2, 138, 0, 1.027426947075583e-06
2, 139, 0, 1.097576046049653e-06
2, 140, 0, 1.046536340254534e-06
2, 141, 0, 1.124622713177814e-06
2, 142, 0, 1.099557380257465e-06
2, 143, 0, 1.104583247979463e-06
2, 144, 0, 1.006786988000385e-06
2, 145, 0, 1.0323030892323e-06
2, 146, 0, 9.670388863014523e-07
2, 147, 0, 1.007230139293824e-06
2, 148, 0, 1.004130012915994e-06
2, 149, 0, 9.699343763713841e-07
2, 150, 0, 1.112201744035701e-06
2, 151, 0, 1.084348696167581e-06
2, 152, 0, 1.170835048469598e-06
2, 153, 0, 1.170228301816678e-06
2, 154, 0, 9.805265790419071e-07
2, 155, 0, 1.030584257932787e-06
2, 156, 0, 9.999542953664786e-07
2, 157, 0, 1.132487682298233e-06
2, 158, 0, 1.155221752924263e-06
2, 159, 0, 1.171022404378164e-06
2, 160, 0, 1.063137801793346e-06
2, 161, 0, 1.007462969937478e-06
2, 162, 0, 9.97948177428043e-07
2, 163, 0, 1.107606635741831e-06
2, 164, 0, 1.02586375305691e-06
2, 165, 0, 1.034445858749677e-06
2, 166, 0, 1.020102104121179e-06
2, 167, 0, 9.149994752988277e-07
2, 168, 0, 9.468046187066648e-07
2, 169, 0, 1.00109787126712e-06
2, 170, 0, 9.261094646717538e-07
2, 171, 0, 1.052573566084902e-06
2, 172, 0, 1.034246565723151e-06
2, 173, 0, 1.043047973325884e-06
2, 174, 0, 8.93372316568275e-07
2, 175, 0, 8.59152407883812e-07
2, 176, 0, 1.079858975572279e-06
2, 177, 0, 1.104036186916346e-06
2, 178, 0, 1.08712254132115e-06
2, 179, 0, 1.067907874130469e-06
2, 180, 0, 1.039303242578171e-06
2, 181, 0, 9.98528889795125e-07
2, 182, 0, 1.008645540423458e-06
2, 183, 0, 9.959794624592178e-07
2, 184, 0, 1.069367385753139e-06
2, 185, 0, 1.005120338959387e-06
2, 186, 0, 9.670944791650982e-07
2, 187, 0, 1.085113808585447e-06
2, 188, 0, 1.068683332050568e-06
2, 189, 0, 1.04904790987348e-06
2, 190, 0, 9.961809155356605e-07
2, 191, 0, 1.093247874450753e-06
2, 192, 0, 1.137318804467213e-06
2, 193, 0, 1.005319859359588e-06
2, 194, 0, 1.040355755321798e-06
2, 195, 0, 1.016861119751411e-06
2, 196, 0, 9.778822231965023e-07
2, 197, 0, 1.018110424411134e-06
2, 198, 0, 1.078638774743013e-06
2, 199, 0, 1.077237470781256e-06
2, 200, 0, 1.059559167515545e-06
2, 201, 0, 9.241537668458477e-07
2, 202, 0, 9.844916348811239e-07
2, 203, 0, 1.001779196485586e-06
2, 204, 0, 9.850053857007879e-07
2, 205, 0, 8.881784197001252e-07
2, 206, 0, 8.001496780707384e-07
2, 207, 0, 5.532769478122646e-07
3, 0, 0, 5.900085398025112e-07
3, 1, 0, 7.903165055722638e-07
3, 2, 0, 1.008262529467174e-06
3, 3, 0, 9.938548828358762e-07
3, 4, 0, 1.047904106599162e-06
3, 5, 0, 1.075150294127525e-06
3, 6, 0, 1.075908016900939e-06
3, 7, 0, 1.105833007386536e-06
3, 8, 0, 1.084880409507605e-06
3, 9, 0, 1.207498712574306e-06
3, 10, 0, 1.212202505485038e-06
3, 11, 0, 1.175929469354742e-06
3, 12, 0, 1.118579120884533e-06
3, 13, 0, 1.147801299339335e-06
3, 14, 0, 1.133708110501175e-06
3, 15, 0, 1.159267185357749e-06
3, 16, 0, 1.251468574992032e-06
3, 17, 0, 1.0817550446518e-06
3, 18, 0, 1.151872766058659e-06
3, 19, 0, 1.207776222145185e-06
3, 20, 0, 1.230784391736961e-06
3, 21, 0, 1.092715365302865e-06
3, 22, 0, 1.145204123531585e-06
3, 23, 0, 9.676092531663016e-07
3, 24, 0, 1.027157850330696e-06
3, 25, 0, 1.118913701247948e-06
3, 26, 0, 1.178322690975619e-06
3, 27, 0, 1.14950807983405e-06
3, 28, 0, 1.071462861546024e-06
3, 29, 0, 1.037308152262995e-06
3, 30, 0, 1.138988295679155e-06
3, 31, 0, 1.113644771066902e-06
3, 32, 0, 1.073169755727577e-06
3, 33, 0, 1.120831143452961e-06
3, 34, 0, 1.167843947769143e-06
3, 35, 0, 1.142056021308235e-06
3, 36, 0, 1.13392241019028e-06
3, 37, 0, 1.163590809483139e-06
3, 38, 0, 1.229283384418522e-06
3, 39, 0, 1.07205335098115e-06
3, 40, 0, 1.231991177519376e-06
3, 41, 0, 1.066466893462348e-06
3, 42, 0, 1.157764586423582e-06
3, 43, 0, 1.0947275086437e-06
3, 44, 0, 1.213795826515707e-06
3, 45, 0, 1.234797423421696e-06
3, 46, 0, 1.139824576057435e-06
3, 47, 0, 1.047828277478402e-06
3, 48, 0, 1.137129629569245e-06
3, 49, 0, 1.170344830825343e-06
3, 50, 0, 1.071117935680377e-06
3, 51, 0, 1.19883975457924e-06
3, 52, 0, 1.16638955205417e-06
3, 53, 0, 1.016009036902688e-06
3, 54, 0, 1.12023190013133e-06
3, 55, 0, 1.160556053036998e-06
3, 56, 0, 1.189374188470538e-06
3, 57, 0, 1.074601868822356e-06
3, 58, 0, 1.10552593923785e-06
3, 59, 0, 1.162042053692858e-06
3, 60, 0, 1.164515538221167e-06
3, 61, 0, 1.177350213765749e-06
3, 62, 0, 1.103808017433039e-06
3, 63, 0, 1.155117274720396e-06
3, 64, 0, 1.159926000582345e-06
3, 65, 0, 1.150020125351148e-06
3, 66, 0, 1.22407266189839e-06
3, 67, 0, 1.117672582040541e-06
3, 68, 0, 1.160915076070523e-06
3, 69, 0, 1.16817989237461e-06
3, 70, 0, 1.241646486960235e-06
3, 71, 0, 1.166371248473297e-06
3, 72, 0, 1.162282387667801e-06
3, 73, 0, 1.196769517264329e-06
3, 74, 0, 1.106017407437321e-06
3, 75, 0, 1.171775920738582e-06
3, 76, 0, 1.184355596706155e-06
3, 77, 0, 1.089944248633401e-06
3, 78, 0, 1.10551195575681e-06
3, 79, 0, 1.13946259716613e-06
3, 80, 0, 1.179746050183894e-06
3, 81, 0, 1.107032289837662e-06
3, 82, 0, 1.152110939983686e-06
3, 83, 0, 1.190038574350183e-06
3, 84, 0, 1.158940222012461e-06
3, 85, 0, 1.154853521256882e-06
3, 86, 0, 1.147496732301079e-06
3, 87, 0, 1.110308858187636e-06
3, 88, 0, 1.142034307122231e-06
3, 89, 0, 1.154960045823827e-06
3, 90, 0, 1.199295866172179e-06
3, 91, 0, 1.123626361732022e-06
3, 92, 0, 1.10083306026354e-06
3, 93, 0, 1.147267425949394e-06
3, 94, 0, 1.143221084021206e-06
3, 95, 0, 1.228438009093225e-06
3, 96, 0, 1.157009137386922e-06
3, 97, 0, 1.195731215375417e-06
3, 98, 0, 1.204219870487577e-06
3, 99, 0, 1.142768610407074e-06
3, 100, 0, 1.261521902051754e-06
3, 101, 0, 1.074211013474269e-06
3, 102, 0, 1.161530349236273e-06
3, 103, 0, 1.131183125835378e-06
3, 104, 0, 1.20587583296583e-06
3, 105, 0, 1.211155677083298e-06
3, 106, 0, 1.183079689326405e-06
3, 107, 0, 1.157288238573528e-06
3, 108, 0, 1.036046796798473e-06
3, 109, 0, 1.156005168923002e-06
3, 110, 0, 1.245412363459764e-06
3, 111, 0, 1.191939418276888e-06
3, 112, 0, 1.228504970640643e-06
3, 113, 0, 1.091079411708051e-06
3, 114, 0, 1.129715428760392e-06
3, 115, 0, 1.122071694226179e-06
3, 116, 0, 1.120148908739793e-06
3, 117, 0, 1.099595124287589e-06
3, 118, 0, 1.100351369132113e-06
3, 119, 0, 1.199852249555988e-06
3, 120, 0, 1.148174078480224e-06
3, 121, 0, 1.138666334554728e-06
3, 122, 0, 1.169038227999408e-06
3, 123, 0, 1.158693635261443e-06
3, 124, 0, 1.198244490296929e-06
3, 125, 0, 1.092846332539921e-06
3, 126, 0, 1.088920498659718e-06
3, 127, 0, 1.059838382388989e-06
3, 128, 0, 1.125031644733099e-06
3, 129, 0, 1.160915076070523e-06
3, 130, 0, 1.157605765911285e-06
3, 131, 0, 1.173092641693074e-06
3, 132, 0, 1.18945240501489e-06
3, 133, 0, 1.165089543064823e-06
3, 134, 0, 1.072838472282456e-06
3, 135, 0, 1.143479266829672e-06
3, 136, 0, 1.09047471141821e-06
3, 137, 0, 1.129364477492345e-06
3, 138, 0, 1.184719621960539e-06
3, 139, 0, 1.230545649377746e-06
3, 140, 0, 1.192498643831641e-06
3, 141, 0, 1.206165848088858e-06
3, 142, 0, 1.207961418003833e-06
3, 143, 0, 1.275350882679049e-06
3, 144, 0, 1.150735215560417e-06
3, 145, 0, 1.166335550806252e-06
3, 146, 0, 1.23448387512326e-06
3, 147, 0, 1.155189806922863e-06
3, 148, 0, 1.121643549595319e-06
3, 149, 0, 1.107816615331103e-06
3, 150, 0, 1.153441871792893e-06
3, 151, 0, 1.198248355649412e-06
3, 152, 0, 1.184841721624252e-06
3, 153, 0, 1.191454430227168e-06
3, 154, 0, 1.069134668796323e-06
3, 155, 0, 1.138812194767524e-06
3, 156, 0, 1.20348772725265e-06
3, 157, 0, 1.204143245558953e-06
3, 158, 0, 1.161392333415279e-06
3, 159, 0, 1.133900013883249e-06
3, 160, 0, 1.25419410323957e-06
3, 161, 0, 1.108303877117578e-06
3, 162, 0, 1.01621947123931e-06
3, 163, 0, 1.175411171061569e-06
3, 164, 0, 1.220758690578805e-06
3, 165, 0, 1.025388314701559e-06
3, 166, 0, 1.125324956774421e-06
3, 167, 0, 1.164823061117204e-06
3, 168, 0, 1.189064278150909e-06
3, 169, 0, 1.181601078314998e-06
3, 170, 0, 1.090604996534239e-06
3, 171, 0, 1.248725425284647e-06
3, 172, 0, 1.160555143542297e-06
3, 173, 0, 1.072098939403077e-06
3, 174, 0, 1.006899083222379e-06
3, 175, 0, 1.035715854413866e-06
3, 176, 0, 1.093137939278677e-06
3, 177, 0, 1.079322601071908e-06
3, 178, 0, 1.130107762037369e-06
3, 179, 0, 1.175159923150204e-06
3, 180, 0, 9.76619617176766e-07
3, 181, 0, 1.104481498259702e-06
3, 182, 0, 1.151607875726768e-06
3, 183, 0, 1.141807160820463e-06
3, 184, 0, 1.074281271939981e-06
3, 185, 0, 1.149558329416323e-06
3, 186, 0, 1.260173917216889e-06
3, 187, 0, 1.193072421301622e-06
3, 188, 0, 1.190665784633893e-06
3, 189, 0, 1.136357809627953e-06
3, 190, 0, 1.195250888486044e-06
3, 191, 0, 1.114928409151617e-06
3, 192, 0, 1.158494796982268e-06
3, 193, 0, 1.130346959143935e-06
3, 194, 0, 1.16360672564042e-06
3, 195, 0, 1.119173475672142e-06
3, 196, 0, 1.08750430172222e-06
3, 197, 0, 1.123296215155278e-06
3, 198, 0, 1.170330051536439e-06
3, 199, 0, 1.14097201731056e-06
3, 200, 0, 1.037094762068591e-06
3, 201, 0, 1.125867015616677e-06
3, 202, 0, 1.160798092314508e-06
3, 203, 0, 1.124791310758155e-06
3, 204, 0, 1.01246416761569e-06
3, 205, 0, 1.003687771117256e-06
3, 206, 0, 8.9879847564589e-07
3, 207, 0, 6.508575438601838e-07
4, 0, 0, 5.847722945873102e-07
4, 1, 0, 7.509513011427771e-07
4, 2, 0, 1.02220576536638e-06
4, 3, 0, 9.835025593929458e-07
4, 4, 0, 1.110704829443421e-06
4, 5, 0, 1.177893068415869e-06
4, 6, 0, 1.226895847139531e-06
4, 7, 0, 1.179883838631213e-06
4, 8, 0, 1.240499614141299e-06
4, 9, 0, 1.195997924696712e-06
4, 10, 0, 1.305696514464216e-06
4, 11, 0, 1.244332565875084e-06
4, 12, 0, 1.138074026130198e-06
4, 13, 0, 1.136902710641152e-06
4, 14, 0, 1.188931719298125e-06
4, 15, 0, 1.219780756400723e-06
4, 16, 0, 1.237712695001392e-06
4, 17, 0, 1.298973984376062e-06
4, 18, 0, 1.288432713408838e-06
4, 19, 0, 1.286191945837345e-06
4, 20, 0, 1.130907662627578e-06
4, 21, 0, 1.224650532094529e-06
4, 22, 0, 1.181373704639554e-06
4, 23, 0, 1.12678151253931e-06
4, 24, 0, 1.206514411933313e-06
4, 25, 0, 1.185717678708897e-06
4, 26, 0, 1.195493041450391e-06
4, 27, 0, 1.280645960832771e-06
4, 28, 0, 1.14105932880193e-06
4, 29, 0, 1.272818280995125e-06
4, 30, 0, 1.278967488360649e-06
4, 31, 0, 1.210957634611987e-06
4, 32, 0, 1.220336002916156e-06
4, 33, 0, 1.249339561582019e-06
4, 34, 0, 1.132488478106097e-06
4, 35, 0, 1.172473162114329e-06
4, 36, 0, 1.267454763365095e-06
4, 37, 0, 1.19215189897659e-06
4, 38, 0, 1.218564875671291e-06
4, 39, 0, 1.263874423784728e-06
4, 40, 0, 1.168759013125964e-06
4, 41, 0, 1.134654780798883e-06
4, 42, 0, 1.249967112926242e-06
4, 43, 0, 1.15699424441118e-06
4, 44, 0, 1.169181700788613e-06
4, 45, 0, 1.132440843321092e-06
4, 46, 0, 1.066604568222829e-06
4, 47, 0, 1.123702531913295e-06
4, 48, 0, 1.217188014379644e-06
4, 49, 0, 1.29998750253435e-06
4, 50, 0, 1.171254325527116e-06
4, 51, 0, 1.265477067136089e-06
4, 52, 0, 1.19395519959653e-06
4, 53, 0, 1.204976229018939e-06
4, 54, 0, 1.252045649380307e-06
4, 55, 0, 1.186757685900375e-06
4, 56, 0, 1.248488160854322e-06
4, 57, 0, 1.18250909508788e-06
4, 58, 0, 1.250301465915982e-06
4, 59, 0, 1.166473339253571e-06
4, 60, 0, 1.313587858930987e-06
4, 61, 0, 1.128342432821228e-06
4, 62, 0, 1.242285861735581e-06
4, 63, 0, 1.310035372625862e-06
4, 64, 0, 1.249889464816079e-06
4, 65, 0, 1.282280891246046e-06
4, 66, 0, 1.225369942403631e-06
4, 67, 0, 1.198121367451677e-06
4, 68, 0, 1.201146119456098e-06
4, 69, 0, 1.180074264084396e-06
4, 70, 0, 1.227663005920476e-06
4, 71, 0, 1.102396254282212e-06
4, 72, 0, 1.172377778857481e-06
4, 73, 0, 1.268264895770699e-06
4, 74, 0, 1.200621682073688e-06
4, 75, 0, 1.212793563354353e-06
4, 76, 0, 1.246674855792662e-06
4, 77, 0, 1.265358378077508e-06
4, 78, 0, 1.21032724109682e-06
4, 79, 0, 1.134246076617274e-06
4, 80, 0, 1.19548110433243e-06
4, 81, 0, 1.238189383911958e-06
4, 82, 0, 1.342004907201044e-06
4, 83, 0, 1.290310933654837e-06
4, 84, 0, 1.194802507598069e-06
4, 85, 0, 1.327604422840523e-06
4, 86, 0, 1.38573022923083e-06
4, 87, 0, 1.237501805917418e-06
4, 88, 0, 1.185986548080109e-06
4, 89, 0, 1.228179030476895e-06
